wavelength (nm),absorption (m^-1),scattering (m^-1)
200,3.07,0.151
201,2.962,0.1478
202,2.854,0.1446
203,2.746,0.1414
204,2.638,0.1382
205,2.53,0.135
206,2.422,0.1318
207,2.314,0.1286
208,2.206,0.1254
209,2.098,0.1222
210,1.99,0.119
211,1.922,0.11705
212,1.854,0.1151
213,1.786,0.11315
214,1.718,0.1112
215,1.65,0.10925
216,1.582,0.1073
217,1.514,0.10535
218,1.446,0.1034
219,1.378,0.10145
220,1.31,0.0995
221,1.2717,0.09775
222,1.2334,0.096
223,1.1951,0.09425
224,1.1568,0.0925
225,1.1185,0.09075
226,1.0802,0.089
227,1.0419,0.08725
228,1.0036,0.0855
229,0.9653,0.08375
230,0.927,0.082
231,0.9063,0.08065
232,0.8856,0.0793
233,0.8649,0.07795
234,0.8442,0.0766
235,0.8235,0.07525
236,0.8028,0.0739
237,0.7821,0.07255
238,0.7614,0.0712
239,0.7407,0.06985
240,0.72,0.0685
241,0.7039,0.0674
242,0.6878,0.0663
243,0.6717,0.0652
244,0.6556,0.0641
245,0.6395,0.063
246,0.6234,0.0619
247,0.6073,0.0608
248,0.5912,0.0597
249,0.5751,0.0586
250,0.559,0.0575
251,0.5488,0.0566
252,0.5386,0.0557
253,0.5284,0.0548
254,0.5182,0.0539
255,0.508,0.053
256,0.4978,0.0521
257,0.4876,0.0512
258,0.4774,0.0503
259,0.4672,0.0494
260,0.457,0.0485
261,0.4486,0.0478
262,0.4402,0.0471
263,0.4318,0.0464
264,0.4234,0.0457
265,0.415,0.045
266,0.4066,0.0443
267,0.3982,0.0436
268,0.3898,0.0429
269,0.3814,0.0422
270,0.373,0.0415
271,0.3645,0.04088
272,0.356,0.04026
273,0.3475,0.03964
274,0.339,0.03902
275,0.3305,0.0384
276,0.322,0.03778
277,0.3135,0.03716
278,0.305,0.03654
279,0.2965,0.03592
280,0.288,0.0353
281,0.2807,0.03482
282,0.2734,0.03434
283,0.2661,0.03386
284,0.2588,0.03338
285,0.2515,0.0329
286,0.2442,0.03242
287,0.2369,0.03194
288,0.2296,0.03146
289,0.2223,0.03098
290,0.215,0.0305
291,0.2076,0.03007
292,0.2002,0.02964
293,0.1928,0.02921
294,0.1854,0.02878
295,0.178,0.02835
296,0.1706,0.02792
297,0.1632,0.02749
298,0.1558,0.02706
299,0.1484,0.02663
300,0.141,0.0262
301,0.1374,0.02587
302,0.1338,0.02554
303,0.1302,0.02521
304,0.1266,0.02488
305,0.123,0.02455
306,0.1194,0.02422
307,0.1158,0.02389
308,0.1122,0.02356
309,0.1086,0.02323
310,0.105,0.0229
311,0.10294,0.02261
312,0.10088,0.02232
313,0.09882,0.02203
314,0.09676,0.02174
315,0.0947,0.02145
316,0.09264,0.02116
317,0.09058,0.02087
318,0.08852,0.02058
319,0.08646,0.02029
320,0.0844,0.02
321,0.08274,0.01975
322,0.08108,0.0195
323,0.07942,0.01925
324,0.07776,0.019
325,0.0761,0.01875
326,0.07444,0.0185
327,0.07278,0.01825
328,0.07112,0.018
329,0.06946,0.01775
330,0.0678,0.0175
331,0.06663,0.01728
332,0.06546,0.01706
333,0.06429,0.01684
334,0.06312,0.01662
335,0.06195,0.0164
336,0.06078,0.01618
337,0.05961,0.01596
338,0.05844,0.01574
339,0.05727,0.01552
340,0.0561,0.0153
341,0.05512,0.01511
342,0.05414,0.01492
343,0.05316,0.01473
344,0.05218,0.01454
345,0.0512,0.01435
346,0.05022,0.01416
347,0.04924,0.01397
348,0.04826,0.01378
349,0.04728,0.01359
350,0.0463,0.0134
351,0.04546,0.01326
352,0.04462,0.01312
353,0.04378,0.01298
354,0.04294,0.01284
355,0.0421,0.0127
356,0.04126,0.01256
357,0.04042,0.01242
358,0.03958,0.01228
359,0.03874,0.01214
360,0.0379,0.012
361,0.03711,0.01186
362,0.03632,0.01172
363,0.03553,0.01158
364,0.03474,0.01144
365,0.03395,0.0113
366,0.03316,0.01116
367,0.03237,0.01102
368,0.03158,0.01088
369,0.03079,0.01074
370,0.03,0.0106
371,0.028137,0.010481
372,0.026274,0.010362
373,0.024411,0.0102431
374,0.022548,0.0101241
375,0.020685,0.0100051
376,0.018822,0.00988614
377,0.016959,0.00976717
378,0.015096,0.00964819
379,0.013233,0.00952922
380,0.01137,0.00941024
381,0.0110203,0.00930455
382,0.0106483,0.00920034
383,0.010212,0.00909758
384,0.00975339,0.00899621
385,0.00941,0.00889624
386,0.00928117,0.00879765
387,0.0092278,0.0087004
388,0.0090662,0.00860448
389,0.0087789,0.00850987
390,0.00851,0.00841652
391,0.00836968,0.00832446
392,0.00831129,0.00823363
393,0.00826448,0.00814403
394,0.00820152,0.00805564
395,0.00813,0.00796843
396,0.00804442,0.00788237
397,0.00788488,0.00779747
398,0.00756564,0.0077137
399,0.00710498,0.00763105
400,0.00663,0.00754947
401,0.00623884,0.00746898
402,0.00592456,0.00738954
403,0.00566888,0.00731116
404,0.005462,0.0072338
405,0.0053,0.00715744
406,0.00518174,0.00708208
407,0.005082,0.0070077
408,0.00497278,0.0069343
409,0.00484953,0.00686183
410,0.00473,0.0067903
411,0.00462955,0.00671969
412,0.00455056,0.00665
413,0.00449607,0.00658119
414,0.00446275,0.00651325
415,0.00444,0.0064462
416,0.00442213,0.00637997
417,0.00441552,0.0063146
418,0.0044316,0.00625006
419,0.00447408,0.00618633
420,0.00454,0.00612341
421,0.00462587,0.00606126
422,0.00470876,0.00599991
423,0.00476025,0.00593931
424,0.00477703,0.00587948
425,0.00478,0.00582039
426,0.00478581,0.00576203
427,0.00480359,0.00570439
428,0.00484278,0.00564748
429,0.00489844,0.00559125
430,0.00495,0.00553572
431,0.00498367,0.00548087
432,0.00501632,0.00542669
433,0.0050725,0.00537317
434,0.00516535,0.0053203
435,0.0053,0.00526809
436,0.00548234,0.00521649
437,0.00569206,0.00516553
438,0.00590719,0.00511518
439,0.00612286,0.00506544
440,0.00635,0.00501629
441,0.00659592,0.00496773
442,0.00684325,0.00491975
443,0.00706914,0.00487235
444,0.00727939,0.00482551
445,0.00751,0.00477922
446,0.00779177,0.00473349
447,0.00812012,0.00468829
448,0.00848944,0.00464363
449,0.00887378,0.0045995
450,0.00922,0.00455587
451,0.00947955,0.00451277
452,0.00964573,0.00447016
453,0.00970564,0.00442806
454,0.00967837,0.00438644
455,0.00962,0.00434531
456,0.00957408,0.00430465
457,0.00955956,0.00426447
458,0.00959539,0.00422474
459,0.00967982,0.00418548
460,0.00979,0.00414666
461,0.00990738,0.00410829
462,0.010011,0.00407036
463,0.0100767,0.00403286
464,0.0101028,0.00399579
465,0.01011,0.00395914
466,0.0101179,0.0039229
467,0.0101567,0.00388707
468,0.0102648,0.00385165
469,0.0104326,0.00381663
470,0.0106,0.003782
471,0.0107245,0.00374776
472,0.0108354,0.0037139
473,0.0109773,0.00368042
474,0.0111674,0.00364732
475,0.0114,0.00361458
476,0.0116718,0.0035822
477,0.011959,0.00355018
478,0.0122352,0.00351852
479,0.0124849,0.00348721
480,0.0127,0.00345623
481,0.0128733,0.00342561
482,0.0130249,0.00339531
483,0.0131786,0.00336535
484,0.0133594,0.00333571
485,0.0136,0.00330639
486,0.0139217,0.0032774
487,0.0142562,0.00324872
488,0.0145167,0.00322035
489,0.0147218,0.00319228
490,0.015,0.00316451
491,0.015446,0.00313705
492,0.0159605,0.00310988
493,0.0164104,0.003083
494,0.0168052,0.00305641
495,0.0173,0.0030301
496,0.0180044,0.00300407
497,0.0187652,0.00297832
498,0.0193765,0.00295284
499,0.0198465,0.00292763
500,0.0204,0.00290269
501,0.0212178,0.00287801
502,0.0222398,0.00285358
503,0.0233812,0.00282942
504,0.0245457,0.00280551
505,0.0256,0.00278185
506,0.0264707,0.00275843
507,0.0274033,0.00273526
508,0.0287338,0.00271232
509,0.0305091,0.00268963
510,0.0325,0.00266717
511,0.0345183,0.00264495
512,0.0363866,0.00262295
513,0.0378981,0.00260118
514,0.0389658,0.00257963
515,0.0396,0.0025583
516,0.0398008,0.00253719
517,0.0398401,0.00251629
518,0.0400304,0.00249561
519,0.040438,0.00247514
520,0.0409,0.00245488
521,0.0412824,0.00243482
522,0.0415368,0.00241496
523,0.0416143,0.00239531
524,0.0415934,0.00237585
525,0.0417,0.00235659
526,0.0420963,0.00233752
527,0.0425947,0.00231864
528,0.0429418,0.00229995
529,0.043131,0.00228144
530,0.0434,0.00226312
531,0.0439153,0.00224499
532,0.0444835,0.00222703
533,0.0448345,0.00220925
534,0.0449769,0.00219164
535,0.0452,0.00217421
536,0.0457133,0.00215695
537,0.0463335,0.00213986
538,0.0468017,0.00212294
539,0.0470912,0.00210618
540,0.0474,0.00208959
541,0.0478872,0.00207315
542,0.0485314,0.00205688
543,0.0492963,0.00204077
544,0.0501581,0.00202481
545,0.0511,0.002009
546,0.0521145,0.00199335
547,0.0531686,0.00197785
548,0.054231,0.0019625
549,0.0553184,0.0019473
550,0.0565,0.00193224
551,0.0577925,0.00191733
552,0.0589193,0.00190255
553,0.0595041,0.00188792
554,0.0595803,0.00187343
555,0.0596,0.00185907
556,0.059897,0.00184486
557,0.0603632,0.00183077
558,0.0608166,0.00181682
559,0.0612635,0.001803
560,0.0619,0.00178931
561,0.062843,0.00177575
562,0.063732,0.00176232
563,0.064085,0.00174901
564,0.0640037,0.00173582
565,0.0642,0.00172276
566,0.0652007,0.00170983
567,0.0665711,0.00169701
568,0.0677101,0.00168431
569,0.0685426,0.00167172
570,0.0695,0.00165926
571,0.0709048,0.00164691
572,0.0725209,0.00163467
573,0.0740183,0.00162254
574,0.0754374,0.00161053
575,0.0772,0.00159863
576,0.0796204,0.00158683
577,0.0823143,0.00157514
578,0.084779,0.00156356
579,0.0870291,0.00155209
580,0.0896,0.00154072
581,0.0929306,0.00152945
582,0.0968246,0.00151828
583,0.101031,0.00150722
584,0.10543,0.00149625
585,0.11,0.00148538
586,0.11474,0.00147462
587,0.119573,0.00146394
588,0.12443,0.00145337
589,0.129465,0.00144289
590,0.1351,0.0014325
591,0.141631,0.0014222
592,0.1484,0.00141199
593,0.154571,0.00140188
594,0.16038,0.00139186
595,0.1672,0.00138192
596,0.176172,0.00137207
597,0.186786,0.00136231
598,0.198406,0.00135264
599,0.210481,0.00134305
600,0.2224,0.00133354
601,0.233525,0.00132412
602,0.243112,0.00131478
603,0.250112,0.00130552
604,0.254581,0.00129634
605,0.2577,0.00128724
606,0.260227,0.00127822
607,0.262196,0.00126928
608,0.26338,0.00126042
609,0.263926,0.00125163
610,0.2644,0.00124292
611,0.2652,0.00123429
612,0.266112,0.00122572
613,0.266797,0.00121723
614,0.267251,0.00120882
615,0.2678,0.00120047
616,0.268716,0.0011922
617,0.269966,0.001184
618,0.271507,0.00117587
619,0.273338,0.0011678
620,0.2755,0.00115981
621,0.277971,0.00115188
622,0.280203,0.00114402
623,0.28149,0.00113623
624,0.282111,0.0011285
625,0.2834,0.00112084
626,0.286265,0.00111324
627,0.289361,0.00110571
628,0.290849,0.00109824
629,0.290873,0.00109083
630,0.2916,0.00108348
631,0.294565,0.0010762
632,0.298175,0.00106897
633,0.300198,0.00106181
634,0.300535,0.0010547
635,0.3012,0.00104765
636,0.303627,0.00104066
637,0.30659,0.00103374
638,0.308329,0.00102686
639,0.309016,0.00102004
640,0.3108,0.00101328
641,0.315183,0.00100658
642,0.320167,0.000999928
643,0.323018,0.000993332
644,0.323725,0.00098679
645,0.325,0.0009803
646,0.328771,0.000973864
647,0.33328,0.00096748
648,0.336031,0.000961148
649,0.337261,0.000954867
650,0.34,0.000948637
651,0.346473,0.000942459
652,0.354443,0.000936329
653,0.36086,0.000930249
654,0.36552,0.000924216
655,0.371,0.000918233
656,0.379205,0.000912299
657,0.38858,0.00090641
658,0.396933,0.00090057
659,0.403738,0.000894776
660,0.41,0.000889028
661,0.416316,0.000883326
662,0.421892,0.00087767
663,0.425473,0.000872057
664,0.427267,0.000866491
665,0.429,0.000860967
666,0.43186,0.000855486
667,0.434888,0.00085005
668,0.436651,0.000844656
669,0.437374,0.000839305
670,0.439,0.000833996
671,0.442831,0.000828727
672,0.446836,0.000823501
673,0.448228,0.000818314
674,0.447396,0.000813168
675,0.448,0.000808063
676,0.452668,0.000802998
677,0.458693,0.000797972
678,0.462323,0.000792983
679,0.46334,0.000788034
680,0.465,0.000783124
681,0.469671,0.000778251
682,0.475506,0.000773416
683,0.479853,0.000768618
684,0.482573,0.000763857
685,0.486,0.000759132
686,0.491858,0.000754444
687,0.498773,0.000749791
688,0.504818,0.000745175
689,0.50995,0.000740593
690,0.516,0.000736045
691,0.524322,0.000731533
692,0.533593,0.000727055
693,0.542024,0.000722611
694,0.549776,0.000718201
695,0.559,0.000713823
696,0.571332,0.000709479
697,0.585185,0.000705168
698,0.598461,0.000700888
699,0.610898,0.000696642
700,0.624,0.000692427
701,0.638935,0.000688244
702,0.654938,0.000684091
703,0.670973,0.000679971
704,0.687006,0.00067588
705,0.704,0.00067182
706,0.722945,0.000667791
707,0.744251,0.000663791
708,0.768628,0.000659821
709,0.796289,0.000655881
710,0.827,0.000651969
711,0.860747,0.000648087
712,0.896148,0.000644233
713,0.931794,0.000640408
714,0.968022,0.000636611
715,1.007,0.000632842
716,1.05044,0.0006291
717,1.09617,0.000625385
718,1.14145,0.000621698
719,1.18582,0.000618037
720,1.231,0.000614403
721,1.27859,0.000610796
722,1.32924,0.000607216
723,1.38379,0.00060366
724,1.43945,0.000600132
725,1.489,0.000596628
726,1.53309,0.000593149
727,1.61011,0.000589697
728,1.7607,0.000586268
729,1.8444,0.000582864
730,1.9624,0.000579485
731,2.0801,0.000576131
732,2.1974,0.000572801
733,2.3144,0.000569494
734,2.4482,0.000566211
735,2.5304,0.00056295
736,2.6123,0.000559714
737,2.64505,0.000556501
738,2.6733,0.00055331
739,2.7377,0.000550142
740,2.768,0.000546996
741,2.7982,0.000543873
742,2.8113,0.000540772
743,2.8245,0.000537693
744,2.8376,0.000534635
745,2.8338,0.000531599
746,2.8468,0.000528585
747,2.843,0.000525592
748,2.856,0.000522619
749,2.85222,0.000519667
750,2.8484,0.000516736
751,2.8613,0.000513826
752,2.8575,0.000510936
753,2.8704,0.000508066
754,2.8666,0.000505216
755,2.8794,0.000502386
756,2.8756,0.000499576
757,2.87046,0.000496785
758,2.8681,0.000494013
759,2.8643,0.00049126
760,2.8605,0.000488526
761,2.8733,0.000485811
762,2.8695,0.000483115
763,2.8657,0.000480438
764,2.86118,0.000477779
765,2.8582,0.000475138
766,2.8545,0.000472516
767,2.8344,0.000469911
768,2.8307,0.000467323
769,2.827,0.000464754
770,2.8234,0.000462202
771,2.8158,0.000459668
772,2.7998,0.000457151
773,2.7799,0.00045465
774,2.7763,0.000452167
775,2.7565,0.0004497
776,2.7529,0.000447251
777,2.74563,0.000444817
778,2.7297,0.000442401
779,2.7101,0.00044
780,2.6905,0.000437615
781,2.6549,0.000435247
782,2.63979,0.000432895
783,2.632,0.000430558
784,2.6127,0.000428236
785,2.5933,0.000425931
786,2.558,0.00042364
787,2.5229,0.000421366
788,2.51291,0.000419106
789,2.5005,0.000416861
790,2.4656,0.000414631
791,2.4465,0.000412416
792,2.4117,0.000410215
793,2.38883,0.00040803
794,2.374,0.000405858
795,2.3552,0.0004037
796,2.3365,0.000401558
797,2.3178,0.000399429
798,2.30361,0.000397314
799,2.2805,0.000395213
800,2.2462,0.000393126
801,2.2434,0.000391052
802,2.23807,0.000388992
803,2.2222,0.000386946
804,2.2038,0.000384913
805,2.2011,0.000382893
806,2.2038,0.000380886
807,2.1956,0.000378892
808,2.1773,0.000376911
809,2.1902,0.000374943
810,2.1875,0.000372988
811,2.18851,0.000371045
812,2.1976,0.000369115
813,2.2103,0.000367197
814,2.223,0.000365292
815,2.23308,0.000363399
816,2.2484,0.000361518
817,2.2764,0.00035965
818,2.3043,0.000357792
819,2.31136,0.000355947
820,2.3294,0.000354114
821,2.3878,0.000352293
822,2.446,0.000350483
823,2.47551,0.000348684
824,2.5163,0.000346898
825,2.6199,0.000345122
826,2.7689,0.000343358
827,2.83076,0.000341605
828,2.9139,0.000339863
829,3.1075,0.000338132
830,3.21308,0.000336412
831,3.2966,0.000334702
832,3.4588,0.000333004
833,3.6055,0.000331316
834,3.66155,0.000329639
835,3.7022,0.000327972
836,3.7879,0.000326316
837,3.8282,0.000324671
838,3.8539,0.000323035
839,3.9092,0.00032141
840,3.9494,0.000319795
841,3.97239,0.00031819
842,3.9997,0.000316594
843,4.0397,0.000315009
844,4.05653,0.000313434
845,4.0748,0.000311868
846,4.1145,0.000310312
847,4.12683,0.000308766
848,4.1493,0.000307229
849,4.2036,0.000305702
850,4.1986,0.000304184
851,4.2232,0.000302675
852,4.25357,0.000301176
853,4.2723,0.000299686
854,4.2803,0.000298205
855,4.3064,0.000296734
856,4.3601,0.000295271
857,4.3694,0.000293817
858,4.3792,0.000292372
859,4.4326,0.000290936
860,4.45336,0.000289509
861,4.4661,0.00028809
862,4.5047,0.000286679
863,4.52734,0.000285278
864,4.5524,0.000283885
865,4.6052,0.0002825
866,4.658,0.000281124
867,4.69036,0.000279756
868,4.7052,0.000278397
869,4.71356,0.000277045
870,4.7521,0.000275702
871,4.8332,0.000274367
872,4.86718,0.000273039
873,4.8941,0.00027172
874,4.9604,0.000270408
875,5.00551,0.000269105
876,5.0495,0.000267809
877,5.1154,0.000266521
878,5.15329,0.000265241
879,5.2038,0.000263968
880,5.2979,0.000262703
881,5.34581,0.000261445
882,5.3856,0.000260195
883,5.4649,0.000258952
884,5.52721,0.000257717
885,5.5661,0.000256489
886,5.5963,0.000255268
887,5.6527,0.000254054
888,5.7454,0.000252848
889,5.78864,0.000251649
890,5.8314,0.000250456
891,5.9235,0.000249271
892,5.98141,0.000248093
893,6.0088,0.000246921
894,6.03605,0.000245757
895,6.0936,0.000244599
896,6.185,0.000243448
897,6.2265,0.000242304
898,6.2692,0.000241166
899,6.3601,0.000240036
900,6.40734,0.000238911
901,6.4575,0.000237793
902,6.5618,0.000236682
903,6.63493,0.000235577
904,6.6724,0.000234478
905,6.70015,0.000233386
906,6.7686,0.0002323
907,6.8997,0.00023122
908,6.98747,0.000230147
909,7.0366,0.00022908
910,7.08601,0.000228019
911,7.1867,0.000226964
912,7.3579,0.000225915
913,7.48412,0.000224872
914,7.5618,0.000223835
915,7.63175,0.000222804
916,7.7922,0.000221779
917,8.0852,0.00022076
918,8.28896,0.000219746
919,8.4095,0.000218739
920,8.53135,0.000217737
921,8.8006,0.00021674
922,9.268,0.00021575
923,9.5829,0.000214765
924,9.8192,0.000213785
925,10.1232,0.000212811
926,10.4222,0.000211843
927,10.667,0.00021088
928,11.131,0.000209923
929,11.9441,0.000208971
930,12.4581,0.000208024
931,12.8093,0.000207082
932,13.2722,0.000206146
933,13.7382,0.000205216
934,14.1016,0.00020429
935,14.6496,0.000203369
936,15.5737,0.000202454
937,16.3425,0.000201544
938,16.8802,0.000200639
939,17.3275,0.000199739
940,18.1811,0.000198843
941,19.6308,0.000197953
942,20.4929,0.000197068
943,21.055,0.000196188
944,21.8763,0.000195312
945,22.8721,0.000194442
946,23.8476,0.000193576
947,24.6816,0.000192715
948,25.4418,0.000191859
949,27.0131,0.000191008
950,29.7625,0.000190161
951,31.5131,0.000189319
952,32.7359,0.000188481
953,34.3879,0.000187648
954,36.2238,0.00018682
955,37.8461,0.000185996
956,39.3028,0.000185177
957,40.6764,0.000184362
958,41.8442,0.000183552
959,42.739,0.000182746
960,43.8514,0.000181944
961,45.3749,0.000181147
962,46.097,0.000180354
963,46.3246,0.000179565
964,46.6348,0.000178781
965,47.0099,0.000178001
966,47.3262,0.000177225
967,47.5625,0.000176454
968,47.7219,0.000175686
969,47.8534,0.000174923
970,47.9995,0.000174164
971,48.143,0.000173409
972,48.2686,0.000172657
973,48.4315,0.000171911
974,48.6399,0.000171168
975,48.6998,0.000170428
976,48.6689,0.000169693
977,48.6389,0.000168962
978,48.5694,0.000168235
979,48.4092,0.000167512
980,48.2138,0.000166792
981,48.0396,0.000166076
982,47.8597,0.000165365
983,47.6373,0.000164657
984,47.3793,0.000163952
985,47.0944,0.000163252
986,46.7734,0.000162555
987,46.4093,0.000161862
988,46.0428,0.000161172
989,45.7021,0.000160487
990,45.3151,0.000159804
991,44.8213,0.000159126
992,44.337,0.000158451
993,43.9707,0.000157779
994,43.6157,0.000157111
995,43.1562,0.000156447
996,42.6449,0.000155786
997,42.1513,0.000155128
998,41.678,0.000154474
999,41.2102,0.000153824
1000,40.715,0.000153176
1001,40.17,0.000152533
1002,39.6305,0.000151892
1003,39.1477,0.000151255
1004,38.6754,0.000150621
1005,38.1591,0.000149991
1006,37.5992,0.000149363
1007,37.0061,0.000148739
1008,36.4026,0.000148119
1009,35.8069,0.000147501
1010,35.2107,0.000146887
1011,34.6071,0.000146275
1012,34.0236,0.000145667
1013,33.4855,0.000145063
1014,32.965,0.000144461
1015,32.4343,0.000143862
1016,31.9107,0.000143266
1017,31.4059,0.000142674
1018,30.8604,0.000142084
1019,30.2225,0.000141498
1020,29.5679,0.000140914
1021,28.9736,0.000140334
1022,28.4034,0.000139756
1023,27.8154,0.000139182
1024,27.2435,0.00013861
1025,26.7229,0.000138041
1026,26.2106,0.000137476
1027,25.657,0.000136913
1028,25.0594,0.000136353
1029,24.4408,0.000135795
1030,23.9127,0.000135241
1031,23.5719,0.000134689
1032,23.3133,0.000134141
1033,22.9917,0.000133595
1034,22.5082,0.000133051
1035,21.976,0.000132511
1036,21.5148,0.000131973
1037,21.0853,0.000131438
1038,20.6353,0.000130905
1039,20.1981,0.000130376
1040,19.811,0.000129848
1041,19.435,0.000129324
1042,19.0366,0.000128802
1043,18.6749,0.000128283
1044,18.408,0.000127766
1045,18.1776,0.000127252
1046,17.9005,0.000126741
1047,17.5243,0.000126232
1048,17.1469,0.000125726
1049,16.8668,0.000125222
1050,16.6355,0.000124721
1051,16.3901,0.000124222
1052,16.126,0.000123725
1053,15.856,0.000123231
1054,15.6185,0.00012274
1055,15.4489,0.000122251
1056,15.3248,0.000121764
1057,15.2176,0.00012128
1058,15.1025,0.000120798
1059,14.9515,0.000120319
1060,14.7505,0.000119842
1061,14.568,0.000119367
1062,14.4704,0.000118895
1063,14.4224,0.000118425
1064,14.3792,0.000117957
1065,14.3285,0.000117491
1066,14.2639,0.000117028
1067,14.184,0.000116567
1068,14.1195,0.000116109
1069,14.0978,0.000115652
1070,14.0931,0.000115198
1071,14.0777,0.000114746
1072,14.0591,0.000114296
1073,14.0537,0.000113849
1074,14.0781,0.000113403
1075,14.1445,0.00011296
1076,14.2551,0.000112519
1077,14.3516,0.00011208
1078,14.3815,0.000111643
1079,14.3863,0.000111208
1080,14.4281,0.000110776
1081,14.5562,0.000110345
1082,14.7498,0.000109917
1083,14.9764,0.00010949
1084,15.1863,0.000109066
1085,15.3399,0.000108644
1086,15.466,0.000108223
1087,15.6068,0.000107805
1088,15.7972,0.000107389
1089,16.0397,0.000106974
1090,16.3236,0.000106562
1091,16.5862,0.000106152
1092,16.7728,0.000105744
1093,16.9274,0.000105337
1094,17.1151,0.000104933
1095,17.3925,0.00010453
1096,17.7718,0.00010413
1097,18.2386,0.000103731
1098,18.655,0.000103334
1099,18.8982,0.000102939
1100,19.0631,0.000102546
1101,19.3964,9.58E-05
1102,19.6667,9.54E-05
1103,19.9349,9.50E-05
1104,20.2489,9.46E-05
1105,20.5737,9.43E-05
1106,20.9127,9.39E-05
1107,21.2239,9.35E-05
1108,21.5529,9.32E-05
1109,21.9086,9.28E-05
1110,22.2636,9.25E-05
1111,22.6944,9.21E-05
1112,22.9628,9.17E-05
1113,23.0789,9.14E-05
1114,23.3174,9.10E-05
1115,23.5665,9.07E-05
1116,23.7063,9.03E-05
1117,23.9813,9.00E-05
1118,24.3816,8.96E-05
1119,24.8453,8.93E-05
1120,25.353,8.89E-05
1121,25.9281,8.86E-05
1122,26.4729,8.83E-05
1123,26.8553,8.79E-05
1124,27.5181,8.76E-05
1125,28.3135,8.72E-05
1126,29.2337,8.69E-05
1127,30.2058,8.66E-05
1128,31.1231,8.62E-05
1129,32.4675,8.59E-05
1130,34.0425,8.56E-05
1131,35.8823,8.53E-05
1132,37.7504,8.49E-05
1133,40.0035,8.46E-05
1134,42.3875,8.43E-05
1135,44.8593,8.40E-05
1136,46.6073,8.37E-05
1137,49.4497,8.33E-05
1138,52.7012,8.30E-05
1139,56.8576,8.27E-05
1140,60.4057,8.24E-05
1141,64.0123,8.21E-05
1142,68.0757,8.18E-05
1143,72.2522,8.15E-05
1144,76.8516,8.12E-05
1145,80.7014,8.08E-05
1146,84.8504,8.05E-05
1147,88.8441,8.02E-05
1148,92.5026,7.99E-05
1149,94.9817,7.96E-05
1150,97.9895,7.93E-05
1151,100.996,7.90E-05
1152,104.602,7.87E-05
1153,107.193,7.85E-05
1154,109.369,7.82E-05
1155,111.408,7.79E-05
1156,113.129,7.76E-05
1157,113.928,7.73E-05
1158,115.076,7.70E-05
1159,116.147,7.67E-05
1160,117.251,7.64E-05
1161,118.051,7.61E-05
1162,118.618,7.59E-05
1163,119.188,7.56E-05
1164,119.65,7.53E-05
1165,119.731,7.50E-05
1166,119.987,7.47E-05
1167,120.243,7.45E-05
1168,120.229,7.42E-05
1169,120.58,7.39E-05
1170,121.038,7.36E-05
1171,121.894,7.34E-05
1172,122.268,7.31E-05
1173,122.553,7.28E-05
1174,122.922,7.26E-05
1175,123.206,7.23E-05
1176,123.046,7.20E-05
1177,123.131,7.18E-05
1178,123.275,7.15E-05
1179,123.572,7.12E-05
1180,123.846,7.10E-05
1181,124.146,7.07E-05
1182,124.513,7.05E-05
1183,124.814,7.02E-05
1184,125.155,7.00E-05
1185,125.48,6.97E-05
1186,125.778,6.94E-05
1187,125.981,6.92E-05
1188,126.228,6.89E-05
1189,126.474,6.87E-05
1190,126.719,6.84E-05
1191,126.965,6.82E-05
1192,127.21,6.80E-05
1193,127.611,6.77E-05
1194,127.809,6.75E-05
1195,127.948,6.72E-05
1196,128.273,6.70E-05
1197,128.252,6.67E-05
1198,128.079,6.65E-05
1199,127.372,6.63E-05
1200,127.2,6.60E-05
1201,127.291,6.58E-05
1202,127.137,6.55E-05
1203,126.968,6.53E-05
1204,126.864,6.51E-05
1205,126.782,6.48E-05
1206,126.643,6.46E-05
1207,126.288,6.44E-05
1208,125.975,6.41E-05
1209,125.663,6.39E-05
1210,125.352,6.37E-05
1211,125.11,6.35E-05
1212,124.869,6.32E-05
1213,124.782,6.30E-05
1214,124.426,6.28E-05
1215,124.014,6.26E-05
1216,123.391,6.23E-05
1217,123.014,6.21E-05
1218,122.638,6.19E-05
1219,122.107,6.17E-05
1220,121.64,6.15E-05
1221,121.231,6.12E-05
1222,121.036,6.10E-05
1223,120.8,6.08E-05
1224,120.565,6.06E-05
1225,120.329,6.04E-05
1226,120.026,6.02E-05
1227,119.723,6.00E-05
1228,119.574,5.98E-05
1229,119.296,5.95E-05
1230,118.961,5.93E-05
1231,118.416,5.91E-05
1232,117.979,5.89E-05
1233,117.544,5.87E-05
1234,116.957,5.85E-05
1235,116.568,5.83E-05
1236,116.236,5.81E-05
1237,116.114,5.79E-05
1238,115.817,5.77E-05
1239,115.521,5.75E-05
1240,115.377,5.73E-05
1241,115.104,5.71E-05
1242,114.776,5.69E-05
1243,114.201,5.67E-05
1244,113.783,5.65E-05
1245,113.379,5.63E-05
1246,113.043,5.61E-05
1247,112.657,5.59E-05
1248,112.271,5.57E-05
1249,111.887,5.55E-05
1250,111.397,5.53E-05
1251,111.078,5.52E-05
1252,110.792,5.50E-05
1253,110.47,5.48E-05
1254,110.226,5.46E-05
1255,110.037,5.44E-05
1256,110.205,5.42E-05
1257,110.073,5.40E-05
1258,109.886,5.38E-05
1259,109.494,5.37E-05
1260,109.274,5.35E-05
1261,109.055,5.33E-05
1262,108.717,5.31E-05
1263,108.472,5.29E-05
1264,108.274,5.27E-05
1265,108.109,5.26E-05
1266,108.038,5.24E-05
1267,108.014,5.22E-05
1268,108.038,5.20E-05
1269,107.917,5.19E-05
1270,108.076,5.17E-05
1271,108.336,5.15E-05
1272,108.967,5.13E-05
1273,109.342,5.12E-05
1274,109.717,5.10E-05
1275,110.019,5.08E-05
1276,110.469,5.06E-05
1277,110.94,5.05E-05
1278,111.197,5.03E-05
1279,111.664,5.01E-05
1280,112.223,5.00E-05
1281,112.875,4.98E-05
1282,113.959,4.96E-05
1283,114.673,4.95E-05
1284,115.381,4.93E-05
1285,116.046,4.91E-05
1286,116.803,4.90E-05
1287,117.568,4.88E-05
1288,118.055,4.86E-05
1289,118.798,4.85E-05
1290,119.633,4.83E-05
1291,120.56,4.81E-05
1292,121.558,4.80E-05
1293,122.676,4.78E-05
1294,123.891,4.77E-05
1295,125.429,4.75E-05
1296,126.774,4.73E-05
1297,128.134,4.72E-05
1298,129.231,4.70E-05
1299,130.694,4.69E-05
1300,132.247,4.67E-05
1301,133.889,4.66E-05
1302,135.298,4.64E-05
1303,137.141,4.63E-05
1304,139.158,4.61E-05
1305,141.801,4.59E-05
1306,144.085,4.58E-05
1307,146.383,4.56E-05
1308,148.418,4.55E-05
1309,150.816,4.53E-05
1310,153.301,4.52E-05
1311,155.873,4.50E-05
1312,158.484,4.49E-05
1313,161.153,4.48E-05
1314,163.921,4.46E-05
1315,166.659,4.45E-05
1316,169.719,4.43E-05
1317,172.91,4.42E-05
1318,176.232,4.40E-05
1319,179.918,4.39E-05
1320,183.301,4.37E-05
1321,186.747,4.36E-05
1322,189.837,4.35E-05
1323,193.598,4.33E-05
1324,197.533,4.32E-05
1325,201.642,4.30E-05
1326,206.304,4.29E-05
1327,210.378,4.27E-05
1328,214.514,4.26E-05
1329,218.443,4.25E-05
1330,223.029,4.23E-05
1331,227.741,4.22E-05
1332,232.582,4.21E-05
1333,237.87,4.19E-05
1334,242.476,4.18E-05
1335,247.11,4.17E-05
1336,252.29,4.15E-05
1337,257.31,4.14E-05
1338,262.188,4.12E-05
1339,266.923,4.11E-05
1340,269.2,4.10E-05
1341,273.844,4.09E-05
1342,278.849,4.07E-05
1343,284.216,4.06E-05
1344,291.797,4.05E-05
1345,296.987,4.03E-05
1346,302.003,4.02E-05
1347,307.316,4.01E-05
1348,312.436,3.99E-05
1349,317.217,3.98E-05
1350,321.658,3.97E-05
1351,323.165,3.96E-05
1352,327.047,3.94E-05
1353,331.155,3.93E-05
1354,335.488,3.92E-05
1355,340.608,3.91E-05
1356,345.066,3.89E-05
1357,349.584,3.88E-05
1358,353.994,3.87E-05
1359,358.838,3.86E-05
1360,363.77,3.84E-05
1361,368.79,3.83E-05
1362,371.67,3.82E-05
1363,377.1,3.81E-05
1364,383.104,3.80E-05
1365,389.681,3.78E-05
1366,396.4,3.77E-05
1367,404.063,3.76E-05
1368,412.402,3.75E-05
1369,421.499,3.74E-05
1370,431.325,3.72E-05
1371,441.796,3.71E-05
1372,452.911,3.70E-05
1373,462.001,3.69E-05
1374,474.787,3.68E-05
1375,488.779,3.67E-05
1376,503.978,3.65E-05
1377,516.072,3.64E-05
1378,534.154,3.63E-05
1379,554.34,3.62E-05
1380,576.63,3.61E-05
1381,591.654,3.60E-05
1382,619.726,3.59E-05
1383,651.921,3.58E-05
1384,688.241,3.56E-05
1385,730.05,3.55E-05
1386,772.595,3.54E-05
1387,818.765,3.53E-05
1388,870.473,3.52E-05
1389,925.381,3.51E-05
1390,983.269,3.50E-05
1391,1044.14,3.49E-05
1392,1110.88,3.48E-05
1393,1175.94,3.47E-05
1394,1243.44,3.46E-05
1395,1313.37,3.44E-05
1396,1400.64,3.43E-05
1397,1474.25,3.42E-05
1398,1547.19,3.41E-05
1399,1619.47,3.40E-05
1400,1693.75,3.39E-05
1401,1765.09,3.38E-05
1402,1835.22,3.37E-05
1403,1904.12,3.36E-05
1404,1971.75,3.35E-05
1405,2037.77,3.34E-05
1406,2102.58,3.33E-05
1407,2166.19,3.32E-05
1408,2236.54,3.31E-05
1409,2296.68,3.30E-05
1410,2353.96,3.29E-05
1411,2408.38,3.28E-05
1412,2461.16,3.27E-05
1413,2510.5,3.26E-05
1414,2556.72,3.25E-05
1415,2599.82,3.24E-05
1416,2629.08,3.23E-05
1417,2667.28,3.22E-05
1418,2704.6,3.21E-05
1419,2741.03,3.20E-05
1420,2775.2,3.19E-05
1421,2809.02,3.18E-05
1422,2842.23,3.17E-05
1423,2874.85,3.16E-05
1424,2913.44,3.15E-05
1425,2944.51,3.14E-05
1426,2973.61,3.13E-05
1427,3000.75,3.12E-05
1428,3021.59,3.11E-05
1429,3045.73,3.10E-05
1430,3068.76,3.10E-05
1431,3090.69,3.09E-05
1432,3113.17,3.08E-05
1433,3131.84,3.07E-05
1434,3149.12,3.06E-05
1435,3165.03,3.05E-05
1436,3179.55,3.04E-05
1437,3193.89,3.03E-05
1438,3206.43,3.02E-05
1439,3217.42,3.01E-05
1440,3221.47,3.00E-05
1441,3228.04,2.99E-05
1442,3234.31,2.99E-05
1443,3240.28,2.98E-05
1444,3245.96,2.97E-05
1445,3252.61,2.96E-05
1446,3257.57,2.95E-05
1447,3262.01,2.94E-05
1448,3265.94,2.93E-05
1449,3270.8,2.92E-05
1450,3273.45,2.91E-05
1451,3275.29,2.91E-05
1452,3276.32,2.90E-05
1453,3276.92,2.89E-05
1454,3276.44,2.88E-05
1455,3275.06,2.87E-05
1456,3272.79,2.86E-05
1457,3277.12,2.85E-05
1458,3272.4,2.85E-05
1459,3265.54,2.84E-05
1460,3256.54,2.83E-05
1461,3245.4,2.82E-05
1462,3232.9,2.81E-05
1463,3218.69,2.80E-05
1464,3202.27,2.80E-05
1465,3183.65,2.79E-05
1466,3153.16,2.78E-05
1467,3130.65,2.77E-05
1468,3107.89,2.76E-05
1469,3084.9,2.76E-05
1470,3064.06,2.75E-05
1471,3039.99,2.74E-05
1472,3015.21,2.73E-05
1473,2989.72,2.72E-05
1474,2959.76,2.72E-05
1475,2933.53,2.71E-05
1476,2907.15,2.70E-05
1477,2880.63,2.69E-05
1478,2853.95,2.68E-05
1479,2825.63,2.68E-05
1480,2797.87,2.67E-05
1481,2770.17,2.66E-05
1482,2742.53,2.65E-05
1483,2714.94,2.64E-05
1484,2698.58,2.64E-05
1485,2668.99,2.63E-05
1486,2637.59,2.62E-05
1487,2604.37,2.61E-05
1488,2555.77,2.61E-05
1489,2522.13,2.60E-05
1490,2489.43,2.59E-05
1491,2457.66,2.58E-05
1492,2427.45,2.58E-05
1493,2394.61,2.57E-05
1494,2362.75,2.56E-05
1495,2331.87,2.55E-05
1496,2301.97,2.55E-05
1497,2278.93,2.54E-05
1498,2252.32,2.53E-05
1499,2225.75,2.52E-05
1500,2199.21,2.52E-05
1501,2171.46,2.51E-05
1502,2143.2,2.50E-05
1503,2115.2,2.50E-05
1504,2087.48,2.49E-05
1505,2060.02,2.48E-05
1506,2034.42,2.47E-05
1507,2008.84,2.47E-05
1508,1983.3,2.46E-05
1509,1957.79,2.45E-05
1510,1929.66,2.45E-05
1511,1902.93,2.44E-05
1512,1876.69,2.43E-05
1513,1850.96,2.43E-05
1514,1825.72,2.42E-05
1515,1801.67,2.41E-05
1516,1778.35,2.40E-05
1517,1755.42,2.40E-05
1518,1732.88,2.39E-05
1519,1705.91,2.38E-05
1520,1683.56,2.38E-05
1521,1662.43,2.37E-05
1522,1642.52,2.36E-05
1523,1623.84,2.36E-05
1524,1614.71,2.35E-05
1525,1597.47,2.34E-05
1526,1580.3,2.34E-05
1527,1563.21,2.33E-05
1528,1546.18,2.32E-05
1529,1530.93,2.32E-05
1530,1514.71,2.31E-05
1531,1498.32,2.30E-05
1532,1481.78,2.30E-05
1533,1465.44,2.29E-05
1534,1447.75,2.29E-05
1535,1429.89,2.28E-05
1536,1411.84,2.27E-05
1537,1393.61,2.27E-05
1538,1371.05,2.26E-05
1539,1353.83,2.25E-05
1540,1336.95,2.25E-05
1541,1320.42,2.24E-05
1542,1304.24,2.23E-05
1543,1284.3,2.23E-05
1544,1267.96,2.22E-05
1545,1252.49,2.22E-05
1546,1237.89,2.21E-05
1547,1224.15,2.20E-05
1548,1217.67,2.20E-05
1549,1204.98,2.19E-05
1550,1192.14,2.19E-05
1551,1179.13,2.18E-05
1552,1163.05,2.17E-05
1553,1149.87,2.17E-05
1554,1137,2.16E-05
1555,1124.43,2.15E-05
1556,1112.17,2.15E-05
1557,1100.07,2.14E-05
1558,1088.07,2.14E-05
1559,1076.4,2.13E-05
1560,1065.07,2.13E-05
1561,1054.08,2.12E-05
1562,1044.66,2.11E-05
1563,1034.5,2.11E-05
1564,1024.52,2.10E-05
1565,1014.7,2.10E-05
1566,1005.07,2.09E-05
1567,994.415,2.08E-05
1568,985.121,2.08E-05
1569,976.158,2.07E-05
1570,967.527,2.07E-05
1571,959.227,2.06E-05
1572,952.474,2.06E-05
1573,944.676,2.05E-05
1574,937.047,2.04E-05
1575,929.588,2.04E-05
1576,922.297,2.03E-05
1577,916.381,2.03E-05
1578,909.429,2.02E-05
1579,902.486,2.02E-05
1580,895.552,2.01E-05
1581,888.626,2.01E-05
1582,881.711,2.00E-05
1583,874.803,2.00E-05
1584,867.904,1.99E-05
1585,861.014,1.98E-05
1586,854.132,1.98E-05
1587,846.079,1.97E-05
1588,839.372,1.97E-05
1589,832.831,1.96E-05
1590,826.456,1.96E-05
1591,820.247,1.95E-05
1592,814.213,1.95E-05
1593,808.177,1.94E-05
1594,802.307,1.94E-05
1595,796.601,1.93E-05
1596,791.06,1.93E-05
1597,786.404,1.92E-05
1598,781.256,1.92E-05
1599,776.177,1.91E-05
1600,771.166,1.91E-05
1601,766.225,1.90E-05
1602,760.773,1.89E-05
1603,755.985,1.89E-05
1604,751.343,1.88E-05
1605,746.848,1.88E-05
1606,742.5,1.87E-05
1607,738.633,1.87E-05
1608,734.523,1.86E-05
1609,730.517,1.86E-05
1610,726.614,1.85E-05
1611,722.814,1.85E-05
1612,719.995,1.84E-05
1613,716.406,1.84E-05
1614,712.821,1.83E-05
1615,709.24,1.83E-05
1616,705.664,1.82E-05
1617,702.093,1.82E-05
1618,698.192,1.82E-05
1619,694.755,1.81E-05
1620,691.363,1.81E-05
1621,688.016,1.80E-05
1622,684.713,1.80E-05
1623,681.221,1.79E-05
1624,677.937,1.79E-05
1625,674.728,1.78E-05
1626,671.595,1.78E-05
1627,668.538,1.77E-05
1628,665.673,1.77E-05
1629,662.831,1.76E-05
1630,660.049,1.76E-05
1631,657.326,1.75E-05
1632,654.661,1.75E-05
1633,652.055,1.74E-05
1634,649.426,1.74E-05
1635,646.887,1.74E-05
1636,644.413,1.73E-05
1637,642.005,1.73E-05
1638,639.663,1.72E-05
1639,637.386,1.72E-05
1640,635.331,1.71E-05
1641,633.193,1.71E-05
1642,631.102,1.70E-05
1643,629.057,1.70E-05
1644,627.475,1.69E-05
1645,625.502,1.69E-05
1646,623.521,1.69E-05
1647,621.533,1.68E-05
1648,619.538,1.68E-05
1649,617.537,1.67E-05
1650,614.921,1.67E-05
1651,613.093,1.66E-05
1652,611.323,1.66E-05
1653,609.613,1.65E-05
1654,607.963,1.65E-05
1655,606.161,1.65E-05
1656,604.495,1.64E-05
1657,602.914,1.64E-05
1658,601.417,1.63E-05
1659,600.005,1.63E-05
1660,598.678,1.62E-05
1661,597.884,1.62E-05
1662,596.769,1.62E-05
1663,595.69,1.61E-05
1664,594.646,1.61E-05
1665,593.637,1.60E-05
1666,592.61,1.60E-05
1667,591.609,1.60E-05
1668,590.65,1.59E-05
1669,589.734,1.59E-05
1670,588.859,1.58E-05
1671,588.027,1.58E-05
1672,587.006,1.58E-05
1673,586.359,1.57E-05
1674,585.782,1.57E-05
1675,585.273,1.56E-05
1676,584.833,1.56E-05
1677,584.611,1.55E-05
1678,584.22,1.55E-05
1679,583.885,1.55E-05
1680,583.604,1.54E-05
1681,583.378,1.54E-05
1682,583.208,1.54E-05
1683,583.608,1.53E-05
1684,583.661,1.53E-05
1685,583.739,1.52E-05
1686,583.842,1.52E-05
1687,583.97,1.52E-05
1688,584.123,1.51E-05
1689,584.213,1.51E-05
1690,584.489,1.50E-05
1691,584.983,1.50E-05
1692,585.475,1.50E-05
1693,585.965,1.49E-05
1694,586.453,1.49E-05
1695,586.938,1.48E-05
1696,587.422,1.48E-05
1697,587.904,1.48E-05
1698,588.383,1.47E-05
1699,588.861,1.47E-05
1700,587.923,1.47E-05
1701,588.709,1.46E-05
1702,589.595,1.46E-05
1703,590.579,1.46E-05
1704,591.662,1.45E-05
1705,592.845,1.45E-05
1706,594.133,1.44E-05
1707,595.337,1.44E-05
1708,596.623,1.44E-05
1709,597.992,1.43E-05
1710,599.774,1.43E-05
1711,601.552,1.43E-05
1712,603.357,1.42E-05
1713,605.189,1.42E-05
1714,607.05,1.42E-05
1715,608.938,1.41E-05
1716,610.853,1.41E-05
1717,612.797,1.40E-05
1718,613.856,1.40E-05
1719,615.876,1.40E-05
1720,617.991,1.39E-05
1721,620.201,1.39E-05
1722,622.506,1.39E-05
1723,624.906,1.38E-05
1724,628.787,1.38E-05
1725,631.28,1.38E-05
1726,633.747,1.37E-05
1727,636.187,1.37E-05
1728,638.599,1.37E-05
1729,640.984,1.36E-05
1730,639.97,1.36E-05
1731,642.493,1.36E-05
1732,645.233,1.35E-05
1733,648.191,1.35E-05
1734,651.366,1.35E-05
1735,654.758,1.34E-05
1736,658.367,1.34E-05
1737,662.194,1.34E-05
1738,666.238,1.33E-05
1739,670.499,1.33E-05
1740,672.576,1.33E-05
1741,677.888,1.32E-05
1742,686.102,1.32E-05
1743,694.155,1.32E-05
1744,701.843,1.31E-05
1745,709.165,1.31E-05
1746,716.122,1.31E-05
1747,722.713,1.30E-05
1748,725.979,1.30E-05
1749,731.613,1.30E-05
1750,737.23,1.29E-05
1751,742.83,1.29E-05
1752,748.414,1.29E-05
1753,753.982,1.28E-05
1754,760.116,1.28E-05
1755,765.595,1.28E-05
1756,771.007,1.27E-05
1757,776.353,1.27E-05
1758,781.632,1.27E-05
1759,786.844,1.27E-05
1760,788.28,1.26E-05
1761,793.365,1.26E-05
1762,798.616,1.26E-05
1763,804.032,1.25E-05
1764,809.614,1.25E-05
1765,815.361,1.25E-05
1766,821.274,1.24E-05
1767,827.352,1.24E-05
1768,833.596,1.24E-05
1769,840.006,1.23E-05
1770,846.619,1.23E-05
1771,852.293,1.23E-05
1772,858.001,1.23E-05
1773,866.725,1.22E-05
1774,873.738,1.22E-05
1775,880.195,1.22E-05
1776,886.096,1.21E-05
1777,891.441,1.21E-05
1778,896.23,1.21E-05
1779,898.224,1.20E-05
1780,901.635,1.20E-05
1781,904.744,1.20E-05
1782,907.549,1.20E-05
1783,910.052,1.19E-05
1784,912.251,1.19E-05
1785,913.714,1.19E-05
1786,915.443,1.18E-05
1787,916.9,1.18E-05
1788,918.086,1.18E-05
1789,919.001,1.18E-05
1790,919.645,1.17E-05
1791,920.017,1.17E-05
1792,915.75,1.17E-05
1793,916.01,1.16E-05
1794,916.346,1.16E-05
1795,916.759,1.16E-05
1796,917.248,1.16E-05
1797,917.813,1.15E-05
1798,920.396,1.15E-05
1799,920.68,1.15E-05
1800,920.879,1.15E-05
1801,920.993,1.14E-05
1802,921.022,1.14E-05
1803,920.965,1.14E-05
1804,920.824,1.13E-05
1805,920.572,1.13E-05
1806,920.802,1.13E-05
1807,920.962,1.13E-05
1808,921.053,1.12E-05
1809,921.074,1.12E-05
1810,918.293,1.12E-05
1811,917.521,1.12E-05
1812,916.931,1.11E-05
1813,916.523,1.11E-05
1814,916.296,1.11E-05
1815,916.25,1.11E-05
1816,916.387,1.10E-05
1817,916.704,1.10E-05
1818,917.746,1.10E-05
1819,918.57,1.09E-05
1820,919.539,1.09E-05
1821,920.652,1.09E-05
1822,921.91,1.09E-05
1823,923.313,1.08E-05
1824,923.184,1.08E-05
1825,924.794,1.08E-05
1826,926.68,1.08E-05
1827,928.842,1.07E-05
1828,931.281,1.07E-05
1829,933.995,1.07E-05
1830,936.986,1.07E-05
1831,941.292,1.06E-05
1832,944.75,1.06E-05
1833,948.413,1.06E-05
1834,952.281,1.06E-05
1835,956.355,1.05E-05
1836,960.634,1.05E-05
1837,965.118,1.05E-05
1838,959.457,1.05E-05
1839,965.379,1.04E-05
1840,972.228,1.04E-05
1841,980.004,1.04E-05
1842,988.707,1.04E-05
1843,998.337,1.03E-05
1844,1008.89,1.03E-05
1845,1021.13,1.03E-05
1846,1032.37,1.03E-05
1847,1044.49,1.02E-05
1848,1057.47,1.02E-05
1849,1071.33,1.02E-05
1850,1086.05,1.02E-05
1851,1073.08,1.02E-05
1852,1090.33,1.01E-05
1853,1110.23,1.01E-05
1854,1132.77,1.01E-05
1855,1157.95,1.01E-05
1856,1185.77,1.00E-05
1857,1216.22,1.00E-05
1858,1249.32,1.00E-05
1859,1285.06,1.00E-05
1860,1289.72,9.90E-06
1861,1334.59,9.90E-06
1862,1384.46,9.90E-06
1863,1439.33,9.90E-06
1864,1499.2,9.80E-06
1865,1542.02,9.80E-06
1866,1612.74,9.80E-06
1867,1690.44,9.80E-06
1868,1775.12,9.80E-06
1869,1866.79,9.70E-06
1870,1965.44,9.70E-06
1871,2071.08,9.70E-06
1872,2233.75,9.70E-06
1873,2347.42,9.60E-06
1874,2465.03,9.60E-06
1875,2586.58,9.60E-06
1876,2712.06,9.60E-06
1877,2841.48,9.60E-06
1878,2974.83,9.50E-06
1879,2791.64,9.50E-06
1880,2936.04,9.50E-06
1881,3099.51,9.50E-06
1882,3282.08,9.40E-06
1883,3483.72,9.40E-06
1884,3704.45,9.40E-06
1885,3944.27,9.40E-06
1886,4203.17,9.40E-06
1887,4481.15,9.30E-06
1888,4778.22,9.30E-06
1889,5094.37,9.30E-06
1890,5342.55,9.30E-06
1891,5664.87,9.30E-06
1892,6007.14,9.20E-06
1893,6369.35,9.20E-06
1894,7116.88,9.20E-06
1895,7597.3,9.20E-06
1896,8053.98,9.20E-06
1897,8486.94,9.10E-06
1898,8896.15,9.10E-06
1899,9281.64,9.10E-06
1900,9643.39,9.10E-06
1901,9893.33,9.00E-06
1902,10199.7,9.00E-06
1903,10489.5,9.00E-06
1904,10762.6,9.00E-06
1905,11019.1,9.00E-06
1906,11258.9,8.90E-06
1907,11482.1,8.90E-06
1908,11574.5,8.90E-06
1909,11766.7,8.90E-06
1910,11947.6,8.90E-06
1911,12117.2,8.80E-06
1912,12275.5,8.80E-06
1913,12422.5,8.80E-06
1914,12558.2,8.80E-06
1915,12682.7,8.80E-06
1916,12795.9,8.70E-06
1917,12897.8,8.70E-06
1918,12988.4,8.70E-06
1919,13067.7,8.70E-06
1920,13027.3,8.70E-06
1921,13112.7,8.60E-06
1922,13194.4,8.60E-06
1923,13305.8,8.60E-06
1924,13401.7,8.60E-06
1925,13486.8,8.60E-06
1926,13561.3,8.60E-06
1927,13625.2,8.50E-06
1928,13678.4,8.50E-06
1929,13720.9,8.50E-06
1930,13705.1,8.50E-06
1931,13713,8.50E-06
1932,13713.8,8.40E-06
1933,13707.4,8.40E-06
1934,13693.8,8.40E-06
1935,13673,8.40E-06
1936,13645.1,8.40E-06
1937,13610,8.30E-06
1938,13567.8,8.30E-06
1939,13518.3,8.30E-06
1940,13438.2,8.30E-06
1941,13384.8,8.30E-06
1942,13326.2,8.30E-06
1943,13262.4,8.20E-06
1944,13193.3,8.20E-06
1945,13083.8,8.20E-06
1946,12996.9,8.20E-06
1947,12907.7,8.20E-06
1948,12816.4,8.10E-06
1949,12722.9,8.10E-06
1950,12627.1,8.10E-06
1951,12529.3,8.10E-06
1952,12429.2,8.10E-06
1953,12305.4,8.10E-06
1954,12206,8.00E-06
1955,12105.6,8.00E-06
1956,12004.3,8.00E-06
1957,11902,8.00E-06
1958,11798.7,8.00E-06
1959,11694.4,7.90E-06
1960,11557.6,7.90E-06
1961,11448.5,7.90E-06
1962,11340.4,7.90E-06
1963,11233.2,7.90E-06
1964,11127,7.90E-06
1965,11021.7,7.80E-06
1966,10917.3,7.80E-06
1967,10813.9,7.80E-06
1968,10727.4,7.80E-06
1969,10626.2,7.80E-06
1970,10525.2,7.80E-06
1971,10424.2,7.70E-06
1972,10323.3,7.70E-06
1973,10222.5,7.70E-06
1974,10121.9,7.70E-06
1975,10021.3,7.70E-06
1976,9911.38,7.70E-06
1977,9811.65,7.60E-06
1978,9712.52,7.60E-06
1979,9613.99,7.60E-06
1980,9516.04,7.60E-06
1981,9418.7,7.60E-06
1982,9321.94,7.60E-06
1983,9225.78,7.50E-06
1984,9120.88,7.50E-06
1985,9025.75,7.50E-06
1986,8931.71,7.50E-06
1987,8838.74,7.50E-06
1988,8746.85,7.50E-06
1989,8656.04,7.40E-06
1990,8566.3,7.40E-06
1991,8477.65,7.40E-06
1992,8399.71,7.40E-06
1993,8312.58,7.40E-06
1994,8226.02,7.40E-06
1995,8140.04,7.30E-06
1996,8054.64,7.30E-06
1997,7969.82,7.30E-06
1998,7885.57,7.30E-06
1999,7801.91,7.30E-06
2000,7709.63,7.30E-06
2001,7628.54,7.20E-06
2002,7548.49,7.20E-06
2003,7469.51,7.20E-06
2004,7391.58,7.20E-06
2005,7314.7,7.20E-06
2006,7238.88,7.20E-06
2007,7164.12,7.20E-06
2008,7091.51,7.10E-06
2009,7017.23,7.10E-06
2010,6943.94,7.10E-06
2011,6871.66,7.10E-06
2012,6800.37,7.10E-06
2013,6730.08,7.10E-06
2014,6660.79,7.00E-06
2015,6592.5,7.00E-06
2016,6536.64,7.00E-06
2017,6471.22,7.00E-06
2018,6406.2,7.00E-06
2019,6341.59,7.00E-06
2020,6277.38,7.00E-06
2021,6213.57,6.90E-06
2022,6150.17,6.90E-06
2023,6087.17,6.90E-06
2024,6016.31,6.90E-06
2025,5953.98,6.90E-06
2026,5892.48,6.90E-06
2027,5831.82,6.90E-06
2028,5771.99,6.80E-06
2029,5712.99,6.80E-06
2030,5654.82,6.80E-06
2031,5597.49,6.80E-06
2032,5528.78,6.80E-06
2033,5473.85,6.80E-06
2034,5420.38,6.80E-06
2035,5368.35,6.70E-06
2036,5317.78,6.70E-06
2037,5268.66,6.70E-06
2038,5220.99,6.70E-06
2039,5174.78,6.70E-06
2040,5161.5,6.70E-06
2041,5116.67,6.70E-06
2042,5071.98,6.60E-06
2043,5027.43,6.60E-06
2044,4983.01,6.60E-06
2045,4938.73,6.60E-06
2046,4894.59,6.60E-06
2047,4850.58,6.60E-06
2048,4806.71,6.60E-06
2049,4762.98,6.50E-06
2050,4730.4,6.50E-06
2051,4689.07,6.50E-06
2052,4647.46,6.50E-06
2053,4605.55,6.50E-06
2054,4563.35,6.50E-06
2055,4520.86,6.50E-06
2056,4478.09,6.40E-06
2057,4411.65,6.40E-06
2058,4365.71,6.40E-06
2059,4320.73,6.40E-06
2060,4276.7,6.40E-06
2061,4233.63,6.40E-06
2062,4191.52,6.40E-06
2063,4150.37,6.40E-06
2064,4110.17,6.30E-06
2065,4070.93,6.30E-06
2066,4039.59,6.30E-06
2067,4002.67,6.30E-06
2068,3966.38,6.30E-06
2069,3930.72,6.30E-06
2070,3895.68,6.30E-06
2071,3861.28,6.20E-06
2072,3827.5,6.20E-06
2073,3794.35,6.20E-06
2074,3763.92,6.20E-06
2075,3731.56,6.20E-06
2076,3699.75,6.20E-06
2077,3668.47,6.20E-06
2078,3637.73,6.20E-06
2079,3607.53,6.10E-06
2080,3577.87,6.10E-06
2081,3548.75,6.10E-06
2082,3520.17,6.10E-06
2083,3502.61,6.10E-06
2084,3475.02,6.10E-06
2085,3447.53,6.10E-06
2086,3420.15,6.10E-06
2087,3392.86,6.00E-06
2088,3365.67,6.00E-06
2089,3338.58,6.00E-06
2090,3311.6,6.00E-06
2091,3284.71,6.00E-06
2092,3261.73,6.00E-06
2093,3228.62,6.00E-06
2094,3194.16,6.00E-06
2095,3158.35,5.90E-06
2096,3121.19,5.90E-06
2097,3082.68,5.90E-06
2098,3042.83,5.90E-06
2099,3001.62,5.90E-06
2100,2959.08,5.90E-06
2101,2944.94,5.90E-06
2102,2930.73,5.90E-06
2103,2916.44,5.80E-06
2104,2902.09,5.80E-06
2105,2887.66,5.80E-06
2106,2873.16,5.80E-06
2107,2858.59,5.80E-06
2108,2843.95,5.80E-06
2109,2829.24,5.80E-06
2110,2814.46,5.80E-06
2111,2799.61,5.80E-06
2112,2784.68,5.70E-06
2113,2769.68,5.70E-06
2114,2754.62,5.70E-06
2115,2739.48,5.70E-06
2116,2724.27,5.70E-06
2117,2708.99,5.70E-06
2118,2684.88,5.70E-06
2119,2672.31,5.70E-06
2120,2659.53,5.60E-06
2121,2646.53,5.60E-06
2122,2633.31,5.60E-06
2123,2619.87,5.60E-06
2124,2606.22,5.60E-06
2125,2592.34,5.60E-06
2126,2578.25,5.60E-06
2127,2553.18,5.60E-06
2128,2538.58,5.60E-06
2129,2524.18,5.50E-06
2130,2509.97,5.50E-06
2131,2495.96,5.50E-06
2132,2482.14,5.50E-06
2133,2468.52,5.50E-06
2134,2455.09,5.50E-06
2135,2441.86,5.50E-06
2136,2426.92,5.50E-06
2137,2414.24,5.50E-06
2138,2401.84,5.40E-06
2139,2389.71,5.40E-06
2140,2377.85,5.40E-06
2141,2366.26,5.40E-06
2142,2354.94,5.40E-06
2143,2343.9,5.40E-06
2144,2333.12,5.40E-06
2145,2323.32,5.40E-06
2146,2312.87,5.40E-06
2147,2302.67,5.30E-06
2148,2292.72,5.30E-06
2149,2283.01,5.30E-06
2150,2273.56,5.30E-06
2151,2264.35,5.30E-06
2152,2255.39,5.30E-06
2153,2246.68,5.30E-06
2154,2238.21,5.30E-06
2155,2233.93,5.30E-06
2156,2225.91,5.30E-06
2157,2217.99,5.20E-06
2158,2210.18,5.20E-06
2159,2202.46,5.20E-06
2160,2194.85,5.20E-06
2161,2187.34,5.20E-06
2162,2179.93,5.20E-06
2163,2172.62,5.20E-06
2164,2163,5.20E-06
2165,2156.07,5.20E-06
2166,2149.34,5.10E-06
2167,2142.81,5.10E-06
2168,2136.49,5.10E-06
2169,2130.36,5.10E-06
2170,2124.44,5.10E-06
2171,2118.71,5.10E-06
2172,2113.19,5.10E-06
2173,2109.46,5.10E-06
2174,2104.09,5.10E-06
2175,2098.86,5.10E-06
2176,2093.79,5.00E-06
2177,2088.85,5.00E-06
2178,2084.07,5.00E-06
2179,2079.43,5.00E-06
2180,2074.94,5.00E-06
2181,2070.59,5.00E-06
2182,2066.39,5.00E-06
2183,2063.34,5.00E-06
2184,2059.69,5.00E-06
2185,2056.15,5.00E-06
2186,2052.72,4.90E-06
2187,2049.41,4.90E-06
2188,2046.21,4.90E-06
2189,2043.12,4.90E-06
2190,2040.15,4.90E-06
2191,2037.29,4.90E-06
2192,2034.54,4.90E-06
2193,2030.77,4.90E-06
2194,2028.1,4.90E-06
2195,2025.58,4.90E-06
2196,2023.22,4.90E-06
2197,2021.01,4.80E-06
2198,2018.94,4.80E-06
2199,2017.04,4.80E-06
2200,2015.28,4.80E-06
2201,2013.68,4.80E-06
2202,2013,4.80E-06
2203,2011.83,4.80E-06
2204,2010.78,4.80E-06
2205,2009.86,4.80E-06
2206,2009.05,4.80E-06
2207,2008.37,4.70E-06
2208,2007.82,4.70E-06
2209,2007.38,4.70E-06
2210,2007.07,4.70E-06
2211,2006.88,4.70E-06
2212,2005.43,4.70E-06
2213,2005.45,4.70E-06
2214,2005.65,4.70E-06
2215,2006.01,4.70E-06
2216,2006.54,4.70E-06
2217,2007.24,4.70E-06
2218,2008.12,4.60E-06
2219,2009.16,4.60E-06
2220,2010.37,4.60E-06
2221,2011.75,4.60E-06
2222,2014.21,4.60E-06
2223,2015.88,4.60E-06
2224,2017.7,4.60E-06
2225,2019.65,4.60E-06
2226,2021.74,4.60E-06
2227,2023.97,4.60E-06
2228,2026.34,4.60E-06
2229,2028.85,4.50E-06
2230,2031.5,4.50E-06
2231,2034.29,4.50E-06
2232,2038.12,4.50E-06
2233,2041.19,4.50E-06
2234,2044.38,4.50E-06
2235,2047.68,4.50E-06
2236,2051.09,4.50E-06
2237,2054.6,4.50E-06
2238,2058.23,4.50E-06
2239,2061.96,4.50E-06
2240,2065.81,4.50E-06
2241,2069.76,4.40E-06
2242,2071.36,4.40E-06
2243,2075.66,4.40E-06
2244,2080.15,4.40E-06
2245,2084.82,4.40E-06
2246,2089.69,4.40E-06
2247,2094.75,4.40E-06
2248,2100,4.40E-06
2249,2105.44,4.40E-06
2250,2111.07,4.40E-06
2251,2116.9,4.40E-06
2252,2122.98,4.40E-06
2253,2129.01,4.30E-06
2254,2135.24,4.30E-06
2255,2141.66,4.30E-06
2256,2148.26,4.30E-06
2257,2155.05,4.30E-06
2258,2162.03,4.30E-06
2259,2169.2,4.30E-06
2260,2176.56,4.30E-06
2261,2184.11,4.30E-06
2262,2193.66,4.30E-06
2263,2201.66,4.30E-06
2264,2209.79,4.30E-06
2265,2218.05,4.20E-06
2266,2226.44,4.20E-06
2267,2234.95,4.20E-06
2268,2243.6,4.20E-06
2269,2252.37,4.20E-06
2270,2261.27,4.20E-06
2271,2270.3,4.20E-06
2272,2276.2,4.20E-06
2273,2285.54,4.20E-06
2274,2295.11,4.20E-06
2275,2304.9,4.20E-06
2276,2314.92,4.20E-06
2277,2325.17,4.10E-06
2278,2335.65,4.10E-06
2279,2346.35,4.10E-06
2280,2357.28,4.10E-06
2281,2368.44,4.10E-06
2282,2379.82,4.10E-06
2283,2393.76,4.10E-06
2284,2405.29,4.10E-06
2285,2416.97,4.10E-06
2286,2428.81,4.10E-06
2287,2440.81,4.10E-06
2288,2452.96,4.10E-06
2289,2465.27,4.10E-06
2290,2477.74,4.00E-06
2291,2490.36,4.00E-06
2292,2503.13,4.00E-06
2293,2513.87,4.00E-06
2294,2527.33,4.00E-06
2295,2541.02,4.00E-06
2296,2554.93,4.00E-06
2297,2569.06,4.00E-06
2298,2583.41,4.00E-06
2299,2597.98,4.00E-06
2300,2612.77,4.00E-06
2301,2627.79,4.00E-06
2302,2643.02,4.00E-06
2303,2658.48,4.00E-06
2304,2673.33,3.90E-06
2305,2688.84,3.90E-06
2306,2704.58,3.90E-06
2307,2720.57,3.90E-06
2308,2736.81,3.90E-06
2309,2753.29,3.90E-06
2310,2770.02,3.90E-06
2311,2786.99,3.90E-06
2312,2804.2,3.90E-06
2313,2821.67,3.90E-06
2314,2844.52,3.90E-06
2315,2862.7,3.90E-06
2316,2880.98,3.90E-06
2317,2899.34,3.80E-06
2318,2917.79,3.80E-06
2319,2936.33,3.80E-06
2320,2954.96,3.80E-06
2321,2973.68,3.80E-06
2322,2992.48,3.80E-06
2323,3011.37,3.80E-06
2324,3030.35,3.80E-06
2325,3030.72,3.80E-06
2326,3050.64,3.80E-06
2327,3071.15,3.80E-06
2328,3092.27,3.80E-06
2329,3114,3.80E-06
2330,3136.32,3.80E-06
2331,3159.26,3.70E-06
2332,3182.79,3.70E-06
2333,3206.93,3.70E-06
2334,3231.67,3.70E-06
2335,3257.02,3.70E-06
2336,3311.16,3.70E-06
2337,3335.41,3.70E-06
2338,3359.47,3.70E-06
2339,3383.36,3.70E-06
2340,3407.08,3.70E-06
2341,3430.63,3.70E-06
2342,3454,3.70E-06
2343,3477.2,3.70E-06
2344,3500.23,3.70E-06
2345,3523.08,3.70E-06
2346,3545.76,3.60E-06
2347,3569.98,3.60E-06
2348,3595.02,3.60E-06
2349,3619.83,3.60E-06
2350,3644.42,3.60E-06
2351,3668.8,3.60E-06
2352,3692.95,3.60E-06
2353,3716.88,3.60E-06
2354,3740.59,3.60E-06
2355,3764.08,3.60E-06
2356,3787.35,3.60E-06
2357,3810.4,3.60E-06
2358,3808.26,3.60E-06
2359,3829.34,3.60E-06
2360,3850.88,3.60E-06
2361,3872.91,3.50E-06
2362,3895.4,3.50E-06
2363,3918.37,3.50E-06
2364,3941.81,3.50E-06
2365,3965.72,3.50E-06
2366,3990.11,3.50E-06
2367,4014.96,3.50E-06
2368,4040.29,3.50E-06
2369,4076.36,3.50E-06
2370,4103.45,3.50E-06
2371,4130.75,3.50E-06
2372,4158.25,3.50E-06
2373,4185.96,3.50E-06
2374,4213.87,3.50E-06
2375,4241.99,3.50E-06
2376,4270.32,3.50E-06
2377,4298.85,3.40E-06
2378,4327.59,3.40E-06
2379,4356.54,3.40E-06
2380,4385.69,3.40E-06
2381,4407.82,3.40E-06
2382,4437.31,3.40E-06
2383,4467.18,3.40E-06
2384,4497.44,3.40E-06
2385,4528.1,3.40E-06
2386,4559.13,3.40E-06
2387,4590.56,3.40E-06
2388,4622.37,3.40E-06
2389,4654.57,3.40E-06
2390,4687.16,3.40E-06
2391,4720.14,3.40E-06
2392,4762.11,3.40E-06
2393,4795.56,3.30E-06
2394,4829.15,3.30E-06
2395,4862.9,3.30E-06
2396,4896.8,3.30E-06
2397,4930.86,3.30E-06
2398,4965.06,3.30E-06
2399,4999.42,3.30E-06
2400,5033.94,3.30E-06
2401,5068.6,3.30E-06
2402,5103.42,3.30E-06
2403,5134.99,3.30E-06
2404,5170.63,3.30E-06
2405,5206.51,3.30E-06
2406,5242.61,3.30E-06
2407,5278.95,3.30E-06
2408,5315.52,3.30E-06
2409,5352.33,3.30E-06
2410,5389.37,3.20E-06
2411,5426.64,3.20E-06
2412,5464.14,3.20E-06
2413,5501.87,3.20E-06
2414,5539.84,3.20E-06
2415,5578.67,3.20E-06
2416,5616.48,3.20E-06
2417,5654.51,3.20E-06
2418,5692.77,3.20E-06
2419,5731.24,3.20E-06
2420,5769.93,3.20E-06
2421,5808.85,3.20E-06
2422,5847.98,3.20E-06
2423,5887.34,3.20E-06
2424,5926.92,3.20E-06
2425,5966.71,3.20E-06
2426,6006.73,3.20E-06
2427,6034.86,3.10E-06
2428,6076.41,3.10E-06
2429,6118.45,3.10E-06
2430,6161,3.10E-06
2431,6204.04,3.10E-06
2432,6247.59,3.10E-06
2433,6291.64,3.10E-06
2434,6336.19,3.10E-06
2435,6381.24,3.10E-06
2436,6426.79,3.10E-06
2437,6472.84,3.10E-06
2438,6519.39,3.10E-06
2439,6543.69,3.10E-06
2440,6590.86,3.10E-06
2441,6639.05,3.10E-06
2442,6688.27,3.10E-06
2443,6738.52,3.10E-06
2444,6789.8,3.10E-06
2445,6842.1,3.10E-06
2446,6895.43,3.00E-06
2447,6949.79,3.00E-06
2448,7005.18,3.00E-06
2449,7061.6,3.00E-06